Time (s),Channel 1 (V)
-0.000286698,-2.545310339
-0.000286628,-2.504161164
-0.000286558,-2.459271155
-0.000286488,-2.403158644
-0.000286418,-2.350786967
-0.000286348,-2.298415289
-0.000286278,-2.249784446
-0.000286208,-2.193671935
-0.000286138,-2.137559424
-0.000286068,-2.081446913
-0.000285998,-2.03281607
-0.000285928,-1.980444393
-0.000285858,-1.935554384
-0.000285788,-1.879441872
-0.000285718,-1.830811029
-0.000285648,-1.778439352
-0.000285578,-1.722326841
-0.000285508,-1.654991827
-0.000285438,-1.598879316
-0.000285368,-1.542766805
-0.000285298,-1.497876796
-0.000285228,-1.434282617
-0.000285158,-1.370688437
-0.000285088,-1.310835092
-0.000285018,-1.258463415
-0.000284948,-1.198610069
-0.000284878,-1.146238392
-0.000284808,-1.086385047
-0.000284738,-1.022790868
-0.000284668,-0.962937522
-0.000284598,-0.910565845
-0.000284528,-0.8507125
-0.000284458,-0.794599989
-0.000284388,-0.738487477
-0.000284318,-0.678634132
-0.000284248,-0.615039953
-0.000284178,-0.558927441
-0.000284108,-0.491592428
-0.000284038,-0.427998249
-0.000283968,-0.368144903
-0.000283898,-0.30080989
-0.000283828,-0.23721571
-0.000283758,-0.169880697
-0.000283688,-0.110027352
-0.000283618,-0.061396509
-0.000283548,0.005938505
-0.000283478,0.058310182
-0.000283408,0.121904361
-0.000283338,0.189239375
-0.000283268,0.24909272
-0.000283198,0.320168568
-0.000283128,0.376281079
-0.000283058,0.436134424
-0.000282988,0.510951106
-0.000282918,0.567063617
-0.000282848,0.630657796
-0.000282778,0.701733644
-0.000282708,0.776550326
-0.000282638,0.828922003
-0.000282568,0.896257016
-0.000282498,0.967332864
-0.000282428,1.030927043
-0.000282358,1.094521223
-0.000282288,1.161856236
-0.000282218,1.22919125
-0.000282148,1.300267097
-0.000282078,1.363861276
-0.000282008,1.43119629
-0.000281938,1.494790469
-0.000281868,1.550902981
-0.000281798,1.618237994
-0.000281728,1.685573007
-0.000281658,1.749167187
-0.000281588,1.809020532
-0.000281518,1.891318882
-0.000281448,1.958653895
-0.000281378,2.014766407
-0.000281308,2.097064756
-0.000281238,2.156918102
-0.000281168,2.220512281
-0.000281098,2.276624792
-0.000281028,2.343959806
-0.000280958,2.407553985
-0.000280888,2.471148165
-0.000280818,2.542224012
-0.000280748,2.605818192
-0.000280678,2.688116541
-0.000280608,2.762933223
-0.000280538,2.826527402
-0.000280468,2.901344084
-0.000280398,2.968679097
-0.000280328,3.024791609
-0.000280258,3.09960829
-0.000280188,3.159461636
-0.000280118,3.219314981
-0.000280048,3.279168326
-0.000279978,3.34650334
-0.000279908,3.421320021
-0.000279838,3.484914201
-0.000279768,3.552249214
-0.000279698,3.623325062
-0.000279628,3.690660075
-0.000279558,3.754254255
-0.000279488,3.821589268
-0.000279418,3.881442613
-0.000279348,3.945036793
-0.000279278,4.01611264
-0.000279208,4.090929322
-0.000279138,4.158264335
-0.000279068,4.210636013
-0.000278998,4.28171186
-0.000278928,4.341565205
-0.000278858,4.401418551
-0.000278788,4.457531062
-0.000278718,4.517384407
-0.000278648,4.569756084
-0.000278578,4.614646093
-0.000278508,4.663276936
-0.000278438,4.696944443
-0.000278368,4.73061195
-0.000278298,4.760538623
-0.000278228,4.782983627
-0.000278158,4.801687797
-0.000278088,4.816651134
-0.000278018,4.83161447
-0.000277948,4.846577806
-0.000277878,4.857800309
-0.000277808,4.865281977
-0.000277738,4.872763645
-0.000277668,4.880245313
-0.000277598,4.891467815
-0.000277528,4.891467815
-0.000277458,4.89520865
-0.000277388,4.906431152
-0.000277318,4.898949484
-0.000277248,4.898949484
-0.000277178,4.902690318
-0.000277108,4.910171986
-0.000277038,4.898949484
-0.000276968,4.906431152
-0.000276898,4.902690318
-0.000276828,4.891467815
-0.000276758,4.898949484
-0.000276688,4.898949484
-0.000276618,4.910171986
-0.000276548,4.91391282
-0.000276478,4.91391282
-0.000276408,4.91391282
-0.000276338,4.917653654
-0.000276268,4.91391282
-0.000276198,4.925135322
-0.000276128,4.925135322
-0.000276058,4.925135322
-0.000275988,4.921394488
-0.000275918,4.917653654
-0.000275848,4.917653654
-0.000275778,4.917653654
-0.000275708,4.921394488
-0.000275638,4.91391282
-0.000275568,4.921394488
-0.000275498,4.925135322
-0.000275428,4.936357824
-0.000275358,4.928876156
-0.000275288,4.928876156
-0.000275218,4.928876156
-0.000275148,4.925135322
-0.000275078,4.928876156
-0.000275008,4.928876156
-0.000274938,4.936357824
-0.000274868,4.936357824
-0.000274798,4.928876156
-0.000274728,4.921394488
-0.000274658,4.921394488
-0.000274588,4.925135322
-0.000274518,4.925135322
-0.000274448,4.93261699
-0.000274378,4.925135322
-0.000274308,4.928876156
-0.000274238,4.936357824
-0.000274168,4.943839493
-0.000274098,4.940098659
-0.000274028,4.940098659
-0.000273958,4.947580327
-0.000273888,4.947580327
-0.000273818,4.940098659
-0.000273748,4.947580327
-0.000273678,4.943839493
-0.000273608,4.951321161
-0.000273538,4.947580327
-0.000273468,4.947580327
-0.000273398,4.955061995
-0.000273328,4.955061995
-0.000273258,4.955061995
-0.000273188,4.947580327
-0.000273118,4.947580327
-0.000273048,4.943839493
-0.000272978,4.943839493
-0.000272908,4.943839493
-0.000272838,4.951321161
-0.000272768,4.951321161
-0.000272698,4.951321161
-0.000272628,4.947580327
-0.000272558,4.955061995
-0.000272488,4.943839493
-0.000272418,4.947580327
-0.000272348,4.943839493
-0.000272278,4.943839493
-0.000272208,4.940098659
-0.000272138,4.943839493
-0.000272068,4.940098659
-0.000271998,4.951321161
-0.000271928,4.955061995
-0.000271858,4.951321161
-0.000271788,4.955061995
-0.000271718,4.958802829
-0.000271648,4.958802829
-0.000271578,4.962543663
-0.000271508,4.962543663
-0.000271438,4.962543663
-0.000271368,4.962543663
-0.000271298,4.962543663
-0.000271228,4.962543663
-0.000271158,4.958802829
-0.000271088,4.970025331
-0.000271018,4.958802829
-0.000270948,4.958802829
-0.000270878,4.958802829
-0.000270808,4.962543663
-0.000270738,4.962543663
-0.000270668,4.966284497
-0.000270598,4.970025331
-0.000270528,4.970025331
-0.000270458,4.970025331
-0.000270388,4.966284497
-0.000270318,4.970025331
-0.000270248,4.984988667
-0.000270178,4.988729502
-0.000270108,4.977506999
-0.000270038,4.992470336
-0.000269968,4.988729502
-0.000269898,4.984988667
-0.000269828,4.984988667
-0.000269758,4.977506999
-0.000269688,4.984988667
-0.000269618,4.981247833
-0.000269548,4.981247833
-0.000269478,4.977506999
-0.000269408,4.977506999
-0.000269338,4.988729502
-0.000269268,4.984988667
-0.000269198,4.977506999
-0.000269128,4.988729502
-0.000269058,4.988729502
-0.000268988,4.981247833
-0.000268918,4.977506999
-0.000268848,4.966284497
-0.000268778,4.962543663
-0.000268708,4.962543663
-0.000268638,4.970025331
-0.000268568,4.970025331
-0.000268498,4.970025331
-0.000268428,4.973766165
-0.000268358,4.981247833
-0.000268288,4.988729502
-0.000268218,4.988729502
-0.000268148,4.981247833
-0.000268078,4.992470336
-0.000268008,4.992470336
-0.000267938,4.984988667
-0.000267868,4.984988667
-0.000267798,4.992470336
-0.000267728,4.992470336
-0.000267658,4.988729502
-0.000267588,4.984988667
-0.000267518,4.984988667
-0.000267448,4.981247833
-0.000267378,4.977506999
-0.000267308,4.973766165
-0.000267238,4.973766165
-0.000267168,4.977506999
-0.000267098,4.988729502
-0.000267028,4.99621117
-0.000266958,4.99621117
-0.000266888,4.988729502
-0.000266818,4.999952004
-0.000266748,4.99621117
-0.000266678,4.984988667
-0.000266608,4.984988667
-0.000266538,4.977506999
-0.000266468,4.992470336
-0.000266398,4.988729502
-0.000266328,4.984988667
-0.000266258,4.988729502
-0.000266188,4.981247833
-0.000266118,4.981247833
-0.000266048,4.984988667
-0.000265978,4.981247833
-0.000265908,4.977506999
-0.000265838,4.981247833
-0.000265768,4.977506999
-0.000265698,4.981247833
-0.000265628,4.988729502
-0.000265558,4.99621117
-0.000265488,4.999952004
-0.000265418,4.99621117
-0.000265348,5.007433672
-0.000265278,5.011174506
-0.000265208,5.003692838
-0.000265138,5.011174506
-0.000265068,5.003692838
-0.000264998,4.999952004
-0.000264928,4.992470336
-0.000264858,4.981247833
-0.000264788,4.988729502
-0.000264718,4.984988667
-0.000264648,4.992470336
-0.000264578,4.99621117
-0.000264508,4.999952004
-0.000264438,5.003692838
-0.000264368,4.999952004
-0.000264298,5.003692838
-0.000264228,5.003692838
-0.000264158,5.011174506
-0.000264088,5.007433672
-0.000264018,5.007433672
-0.000263948,5.011174506
-0.000263878,5.011174506
-0.000263808,4.999952004
-0.000263738,4.999952004
-0.000263668,4.99621117
-0.000263598,4.999952004
-0.000263528,4.999952004
-0.000263458,4.99621117
-0.000263388,4.999952004
-0.000263318,5.003692838
-0.000263248,5.003692838
-0.000263178,4.999952004
-0.000263108,5.003692838
-0.000263038,4.999952004
-0.000262968,4.999952004
-0.000262898,4.999952004
-0.000262828,4.99621117
-0.000262758,4.99621117
-0.000262688,5.007433672
-0.000262618,4.999952004
-0.000262548,4.984988667
-0.000262478,4.970025331
-0.000262408,4.962543663
-0.000262338,4.958802829
-0.000262268,4.943839493
-0.000262198,4.936357824
-0.000262128,4.93261699
-0.000262058,4.928876156
-0.000261988,4.925135322
-0.000261918,4.936357824
-0.000261848,4.928876156
-0.000261778,4.93261699
-0.000261708,4.93261699
-0.000261638,4.917653654
-0.000261568,4.917653654
-0.000261498,4.906431152
-0.000261428,4.906431152
-0.000261358,4.89520865
-0.000261288,4.898949484
-0.000261218,4.891467815
-0.000261148,4.883986147
-0.000261078,4.872763645
-0.000261008,4.869022811
-0.000260938,4.857800309
-0.000260868,4.83161447
-0.000260798,4.805428632
-0.000260728,4.734352784
-0.000260658,4.622127762
-0.000260588,4.435086057
-0.000260518,4.244303519
-0.000260448,4.061002649
-0.000260378,3.89640595
-0.000260308,3.754254255
-0.000260238,3.645770066
-0.000260168,3.563471716
-0.000260098,3.511100039
-0.000260028,3.462469196
-0.000259958,3.436283358
-0.000259888,3.42880169
-0.000259818,3.417579187
-0.000259748,3.410097519
-0.000259678,3.395134183
-0.000259608,3.387652515
-0.000259538,3.380170846
-0.000259468,3.361466676
-0.000259398,3.331540003
-0.000259328,3.305354165
-0.000259258,3.260464156
-0.000259188,3.223055815
-0.000259118,3.174424972
-0.000259048,3.118312461
-0.000258978,3.073422452
-0.000258908,3.021050775
-0.000258838,2.972419932
-0.000258768,2.920048254
-0.000258698,2.856454075
-0.000258628,2.804082398
-0.000258558,2.751710721
-0.000258488,2.710561546
-0.000258418,2.654449035
-0.000258348,2.594595689
-0.000258278,2.545964846
-0.000258208,2.497334003
-0.000258138,2.44870316
-0.000258068,2.396331483
-0.000257998,2.336478138
-0.000257928,2.287847295
-0.000257858,2.242957286
-0.000257788,2.190585609
-0.000257718,2.138213931
-0.000257648,2.093323922
-0.000257578,2.040952245
-0.000257508,1.988580568
-0.000257438,1.928727223
-0.000257368,1.88009638
-0.000257298,1.823983869
-0.000257228,1.764130523
-0.000257158,1.71549968
-0.000257088,1.651905501
-0.000257018,1.599533824
-0.000256948,1.539680478
-0.000256878,1.483567967
-0.000256808,1.423714622
-0.000256738,1.367602111
-0.000256668,1.315230433
-0.000256598,1.255377088
-0.000256528,1.184301241
-0.000256458,1.128188729
-0.000256388,1.06459455
-0.000256318,1.015963707
-0.000256248,0.952369527
-0.000256178,0.89999785
-0.000256108,0.840144505
-0.000256038,0.78029116
-0.000255968,0.71669698
-0.000255898,0.649361967
-0.000255828,0.59699029
-0.000255758,0.53339611
-0.000255688,0.469801931
-0.000255618,0.406207752
-0.000255548,0.342613572
-0.000255478,0.275278559
-0.000255408,0.207943545
-0.000255338,0.144349366
-0.000255268,0.080755186
-0.000255198,0.028383509
-0.000255128,-0.027729002
-0.000255058,-0.095064015
-0.000254988,-0.143694858
-0.000254918,-0.207289038
-0.000254848,-0.274624051
-0.000254778,-0.345699899
-0.000254708,-0.40181241
-0.000254638,-0.465406589
-0.000254568,-0.525259935
-0.000254498,-0.600076616
-0.000254428,-0.671152464
-0.000254358,-0.727264975
-0.000254288,-0.790859155
-0.000254218,-0.861935002
-0.000254148,-0.925529181
-0.000254078,-0.996605029
-0.000254008,-1.056458374
-0.000253938,-1.127534222
-0.000253868,-1.194869235
-0.000253798,-1.265945083
-0.000253728,-1.333280096
-0.000253658,-1.40061511
-0.000253588,-1.471690957
-0.000253518,-1.527803469
-0.000253448,-1.595138482
-0.000253378,-1.658732661
-0.000253308,-1.729808509
-0.000253238,-1.797143523
-0.000253168,-1.871960204
-0.000253098,-1.943036052
-0.000253028,-2.006630231
-0.000252958,-2.07022441
-0.000252888,-2.13381859
-0.000252818,-2.197412769
-0.000252748,-2.272229451
-0.000252678,-2.332082796
-0.000252608,-2.403158644
-0.000252538,-2.477975325
-0.000252468,-2.534087837
-0.000252398,-2.608904518
-0.000252328,-2.679980366
-0.000252258,-2.739833711
-0.000252188,-2.799687056
-0.000252118,-2.870762904
-0.000252048,-2.941838751
-0.000251978,-3.009173765
-0.000251908,-3.080249613
-0.000251838,-3.143843792
-0.000251768,-3.211178805
-0.000251698,-3.274772985
-0.000251628,-3.349589666
-0.000251558,-3.413183846
-0.000251488,-3.484259693
-0.000251418,-3.551594707
-0.000251348,-3.630152223
-0.000251278,-3.693746402
-0.000251208,-3.757340581
-0.000251138,-3.824675595
-0.000251068,-3.88452894
-0.000250998,-3.948123119
-0.000250928,-4.007976465
-0.000250858,-4.08653398
-0.000250788,-4.146387326
-0.000250718,-4.213722339
-0.000250648,-4.281057353
-0.000250578,-4.337169864
-0.000250508,-4.400764043
-0.000250438,-4.460617389
-0.000250368,-4.520470734
-0.000250298,-4.565360743
-0.000250228,-4.61773242
-0.000250158,-4.655140761
-0.000250088,-4.688808268
-0.000250018,-4.722475774
-0.000249948,-4.748661613
-0.000249878,-4.778588286
-0.000249808,-4.793551622
-0.000249738,-4.81973746
-0.000249668,-4.838441631
-0.000249598,-4.842182465
-0.000249528,-4.857145801
-0.000249458,-4.868368304
-0.000249388,-4.879590806
-0.000249318,-4.887072474
-0.000249248,-4.894554142
-0.000249178,-4.90203581
-0.000249108,-4.894554142
-0.000249038,-4.90203581
-0.000248968,-4.894554142
-0.000248898,-4.898294976
-0.000248828,-4.894554142
-0.000248758,-4.894554142
-0.000248688,-4.894554142
-0.000248618,-4.90203581
-0.000248548,-4.905776644
-0.000248478,-4.913258313
-0.000248408,-4.909517478
-0.000248338,-4.916999147
-0.000248268,-4.909517478
-0.000248198,-4.920739981
-0.000248128,-4.916999147
-0.000248058,-4.916999147
-0.000247988,-4.920739981
-0.000247918,-4.924480815
-0.000247848,-4.924480815
-0.000247778,-4.913258313
-0.000247708,-4.913258313
-0.000247638,-4.916999147
-0.000247568,-4.916999147
-0.000247498,-4.920739981
-0.000247428,-4.913258313
-0.000247358,-4.928221649
-0.000247288,-4.928221649
-0.000247218,-4.931962483
-0.000247148,-4.928221649
-0.000247078,-4.928221649
-0.000247008,-4.928221649
-0.000246938,-4.924480815
-0.000246868,-4.924480815
-0.000246798,-4.916999147
-0.000246728,-4.916999147
-0.000246658,-4.916999147
-0.000246588,-4.928221649
-0.000246518,-4.924480815
-0.000246448,-4.931962483
-0.000246378,-4.939444151
-0.000246308,-4.943184985
-0.000246238,-4.946925819
-0.000246168,-4.943184985
-0.000246098,-4.943184985
-0.000246028,-4.939444151
-0.000245958,-4.943184985
-0.000245888,-4.946925819
-0.000245818,-4.939444151
-0.000245748,-4.943184985
-0.000245678,-4.943184985
-0.000245608,-4.946925819
-0.000245538,-4.950666653
-0.000245468,-4.954407487
-0.000245398,-4.954407487
-0.000245328,-4.950666653
-0.000245258,-4.943184985
-0.000245188,-4.954407487
-0.000245118,-4.950666653
-0.000245048,-4.958148321
-0.000244978,-4.961889156
-0.000244908,-4.96562999
-0.000244838,-4.958148321
-0.000244768,-4.958148321
-0.000244698,-4.969370824
-0.000244628,-4.961889156
-0.000244558,-4.96562999
-0.000244488,-4.961889156
-0.000244418,-4.958148321
-0.000244348,-4.950666653
-0.000244278,-4.954407487
-0.000244208,-4.954407487
-0.000244138,-4.958148321
-0.000244068,-4.950666653
-0.000243998,-4.958148321
-0.000243928,-4.958148321
-0.000243858,-4.958148321
-0.000243788,-4.954407487
-0.000243718,-4.958148321
-0.000243648,-4.958148321
-0.000243578,-4.96562999
-0.000243508,-4.96562999
-0.000243438,-4.976852492
-0.000243368,-4.973111658
-0.000243298,-4.973111658
-0.000243228,-4.961889156
-0.000243158,-4.96562999
-0.000243088,-4.961889156
-0.000243018,-4.958148321
-0.000242948,-4.969370824
-0.000242878,-4.976852492
-0.000242808,-4.973111658
-0.000242738,-4.973111658
-0.000242668,-4.969370824
-0.000242598,-4.973111658
-0.000242528,-4.969370824
-0.000242458,-4.969370824
-0.000242388,-4.973111658
-0.000242318,-4.969370824
-0.000242248,-4.969370824
-0.000242178,-4.976852492
-0.000242108,-4.973111658
-0.000242038,-4.969370824
-0.000241968,-4.969370824
-0.000241898,-4.976852492
-0.000241828,-4.980593326
-0.000241758,-4.980593326
-0.000241688,-4.976852492
-0.000241618,-4.980593326
-0.000241548,-4.980593326
-0.000241478,-4.976852492
-0.000241408,-4.98433416
-0.000241338,-4.980593326
-0.000241268,-4.973111658
-0.000241198,-4.973111658
-0.000241128,-4.96562999
-0.000241058,-4.969370824
-0.000240988,-4.973111658
-0.000240918,-4.969370824
-0.000240848,-4.973111658
-0.000240778,-4.973111658
-0.000240708,-4.973111658
-0.000240638,-4.98433416
-0.000240568,-4.988074994
-0.000240498,-4.991815828
-0.000240428,-4.995556662
-0.000240358,-4.999297496
-0.000240288,-4.995556662
-0.000240218,-4.98433416
-0.000240148,-4.976852492
-0.000240078,-4.980593326
-0.000240008,-4.991815828
-0.000239938,-4.988074994
-0.000239868,-4.991815828
-0.000239798,-4.98433416
-0.000239728,-4.980593326
-0.000239658,-4.980593326
-0.000239588,-4.980593326
-0.000239518,-4.991815828
-0.000239448,-4.988074994
-0.000239378,-4.991815828
-0.000239308,-5.00303833
-0.000239238,-5.00303833
-0.000239168,-4.991815828
-0.000239098,-4.991815828
-0.000239028,-4.991815828
-0.000238958,-4.98433416
-0.000238888,-4.98433416
-0.000238818,-4.995556662
-0.000238748,-4.991815828
-0.000238678,-4.995556662
-0.000238608,-4.995556662
-0.000238538,-4.999297496
-0.000238468,-4.999297496
-0.000238398,-4.995556662
-0.000238328,-4.98433416
-0.000238258,-4.995556662
-0.000238188,-4.988074994
-0.000238118,-4.988074994
-0.000238048,-4.988074994
-0.000237978,-4.995556662
-0.000237908,-5.00303833
-0.000237838,-5.00303833
-0.000237768,-5.00303833
-0.000237698,-4.999297496
-0.000237628,-4.999297496
-0.000237558,-5.00303833
-0.000237488,-4.995556662
-0.000237418,-4.988074994
-0.000237348,-4.980593326
-0.000237278,-4.980593326
-0.000237208,-4.98433416
-0.000237138,-4.991815828
-0.000237068,-4.991815828
-0.000236998,-4.995556662
-0.000236928,-4.991815828
-0.000236858,-4.991815828
-0.000236788,-4.976852492
-0.000236718,-4.980593326
-0.000236648,-4.988074994
-0.000236578,-4.976852492
-0.000236508,-4.988074994
-0.000236438,-4.991815828
-0.000236368,-4.995556662
-0.000236298,-4.999297496
-0.000236228,-5.006779165
-0.000236158,-5.00303833
-0.000236088,-5.006779165
-0.000236018,-4.999297496
-0.000235948,-5.00303833
-0.000235878,-5.006779165
-0.000235808,-4.999297496
-0.000235738,-4.991815828
-0.000235668,-4.98433416
-0.000235598,-4.980593326
-0.000235528,-4.988074994
-0.000235458,-4.98433416
-0.000235388,-4.991815828
-0.000235318,-5.00303833
-0.000235248,-5.006779165
-0.000235178,-4.995556662
-0.000235108,-4.995556662
-0.000235038,-4.988074994
-0.000234968,-4.988074994
-0.000234898,-4.988074994
-0.000234828,-4.98433416
-0.000234758,-4.976852492
-0.000234688,-4.973111658
-0.000234618,-4.976852492
-0.000234548,-4.976852492
-0.000234478,-4.973111658
-0.000234408,-4.96562999
-0.000234338,-4.969370824
-0.000234268,-4.961889156
-0.000234198,-4.961889156
-0.000234128,-4.958148321
-0.000234058,-4.961889156
-0.000233988,-4.950666653
-0.000233918,-4.946925819
-0.000233848,-4.954407487
-0.000233778,-4.958148321
-0.000233708,-4.954407487
-0.000233638,-4.954407487
-0.000233568,-4.950666653
-0.000233498,-4.950666653
-0.000233428,-4.939444151
-0.000233358,-4.935703317
-0.000233288,-4.935703317
-0.000233218,-4.935703317
-0.000233148,-4.935703317
-0.000233078,-4.924480815
-0.000233008,-4.913258313
-0.000232938,-4.894554142
-0.000232868,-4.88333164
-0.000232798,-4.864627469
-0.000232728,-4.842182465
-0.000232658,-4.808514958
-0.000232588,-4.741179945
-0.000232518,-4.621473254
-0.000232448,-4.430690716
-0.000232378,-4.239908178
-0.000232308,-4.06782981
-0.000232238,-3.906973945
-0.000232168,-3.78352642
-0.000232098,-3.6825239
-0.000232028,-3.622670554
-0.000231958,-3.570298877
-0.000231888,-3.53663137
-0.000231818,-3.514186366
-0.000231748,-3.506704698
-0.000231678,-3.502963864
